# 催化剂颗粒径向浓度分布 (FEM)
# 单位: r [m], C [mol/m^3]
# x          y
  0.0000000000000000e+00   -1.0179674438892926e-03
  2.4712192473744354e-05   -1.0179674440861997e-03
  7.3579827507400651e-05   -6.0945544376909558e-03
  1.2205454230617159e-04   -1.6129643157159510e-02
  1.7143333775600383e-04   -3.1169925404050884e-02
  2.1869612922787519e-04   -5.0612232088315771e-02
  2.6746068667867927e-04   -7.5300573335789905e-02
  3.1648759668757821e-04   -1.0451289123511151e-01
  3.6693446332636606e-04   -1.3870228368481885e-01
  4.1412056178436818e-04   -1.7516968075682104e-01
  4.5921376446208287e-04   -2.1523471432022084e-01
  5.0647458985104098e-04   -2.6234809650899243e-01
  5.5327621077308541e-04   -3.1370235673576297e-01
  6.0203540483722007e-04   -3.7165190548932986e-01
  6.4833388954231477e-04   -4.3116794262754149e-01
  6.9746712402577544e-04   -4.9890113401043912e-01
  7.4361561412951394e-04   -5.6702035724992461e-01
  7.9358549211497092e-04   -6.4526869842114942e-01
  8.4054132402747563e-04   -7.2298946621664029e-01
  8.8570577198637270e-04   -8.0284587677798813e-01
  9.3436984493000454e-04   -8.9377504243788963e-01
  9.8150365329158348e-04   -9.8616068184967320e-01
  1.0287352010676287e-03   -1.0831292804121007e+00
  1.0766842709452522e-03   -1.1827823126817827e+00
  1.1237628433495420e-03   -1.2611707540100319e+00
  1.1733953742375219e-03   -1.2381824996049939e+00
  1.2190115006280567e-03   -9.8067089923185147e-01
  1.2679312221275992e-03   -5.1779278502844261e-01
  1.3148151097330133e-03   -2.0272862245278378e-01
  1.3617333188163413e-03    1.3964712574242341e-01
  1.4080383959559806e-03    4.8436500468951699e-01
  1.4557219550796266e-03    8.2688263633374670e-01
  1.5030457244482830e-03    1.1715592829221195e+00
  1.5512411798505529e-03    1.5178292298885043e+00
  1.5985193501249744e-03    1.8570234144800730e+00
  1.6468870314736447e-03    2.2023823031205110e+00
  1.6943201333677800e-03    2.5390685853510373e+00
  1.7423405123343741e-03    2.8805332444571872e+00
  1.7896749081648500e-03    3.2124913979149303e+00
  1.8353895921319951e-03    3.5393408576142322e+00
  1.8836781681821552e-03    3.8717940525401868e+00
  1.9305912962262466e-03    4.2133135733537310e+00
  1.9783398505905936e-03    4.5330371770270119e+00
  2.0260952717472366e-03    4.8879819823882320e+00
  2.0724436942543140e-03    5.1950325968413722e+00
  2.1202419365782192e-03    5.5455124629625310e+00
  2.1682467892583440e-03    5.8791453758012278e+00
  2.2142412735847257e-03    6.2017518865237573e+00
  2.2617201706651257e-03    6.5448089877913027e+00
  2.3093203492645172e-03    6.8785147465827512e+00
  2.3573284250097541e-03    7.2225928615245083e+00
  2.4031490496630187e-03    7.5528907249476944e+00
  2.4508669705725684e-03    7.8946775778781655e+00
  2.4988587918685413e-03    8.2414962644966714e+00
  2.5460386111253062e-03    8.5883467450410187e+00
  2.5930164810292256e-03    8.9275800051007295e+00
  2.6406258155194503e-03    9.2789289886100157e+00
  2.6883696301307713e-03    9.6371653006090092e+00
  2.7372670702797562e-03    9.9914196571466736e+00
  2.7851515726738203e-03    1.0364483875715703e+01
  2.8334763663741156e-03    1.0712085631431986e+01
  2.8815777322281047e-03    1.1096523397548212e+01
  2.9293588179354004e-03    1.1450225732997264e+01
  2.9766206943450768e-03    1.1815377366229947e+01
  3.0000000000000001e-03    1.1999984658773684e+01
