# 催化剂颗粒径向浓度分布 (FDM)
# 单位: r [m], C [mol/m^3]
# x          y
  0.0000000000000000e+00    2.7570085012873387e+00
  2.4712192473744354e-05    2.7575701483107657e+00
  7.3579827507400651e-05    2.7601488952753415e+00
  1.2205454230617159e-04    2.7681643761669319e+00
  1.7143333775600383e-04    2.7810292800147742e+00
  2.1869612922787519e-04    2.7977634242802041e+00
  2.6746068667867927e-04    2.8193977914854873e+00
  3.1648759668757821e-04    2.8456666804209387e+00
  3.6693446332636606e-04    2.8774176150450508e+00
  4.1412056178436818e-04    2.9115550961916030e+00
  4.5921376446208287e-04    2.9481826074001107e+00
  5.0647458985104098e-04    2.9907405484097165e+00
  5.5327621077308541e-04    3.0371626183803624e+00
  6.0203540483722007e-04    3.0900643063366600e+00
  6.4833388954231477e-04    3.1446715007884443e+00
  6.9746712402577544e-04    3.2072688094310675e+00
  7.4361561412951394e-04    3.2705214729252905e+00
  7.9358549211497092e-04    3.3438612260273053e+00
  8.4054132402747563e-04    3.4174823654492208e+00
  8.8570577198637270e-04    3.4926259344017812e+00
  9.3436984493000454e-04    3.5783479766480624e+00
  9.8150365329158348e-04    3.6661633566870231e+00
  1.0287352010676287e-03    3.7589190806649948e+00
  1.0766842709452522e-03    3.8579954679639439e+00
  1.1237628433495420e-03    3.9601397378700458e+00
  1.1733953742375219e-03    4.0730650087077818e+00
  1.2190115006280567e-03    4.1816711546339560e+00
  1.2679312221275992e-03    4.3032599233908213e+00
  1.3148151097330133e-03    4.4248218225987870e+00
  1.3617333188163413e-03    4.5514188246668041e+00
  1.4080383959559806e-03    4.6812387358385079e+00
  1.4557219550796266e-03    4.8199962672499517e+00
  1.5030457244482830e-03    4.9628215247348759e+00
  1.5512411798505529e-03    5.1135206580963386e+00
  1.5985193501249744e-03    5.2665091143142169e+00
  1.6468870314736447e-03    5.4283028178813959e+00
  1.6943201333677800e-03    5.5921647168805766e+00
  1.7423405123343741e-03    5.7632825371688794e+00
  1.7896749081648500e-03    5.9370984685072727e+00
  1.8353895921319951e-03    6.1098030559318683e+00
  1.8836781681821552e-03    6.2973572390864998e+00
  1.9305912962262466e-03    6.4846051193398289e+00
  1.9783398505905936e-03    6.6802485229833266e+00
  2.0260952717472366e-03    6.8809984363337993e+00
  2.0724436942543140e-03    7.0806609392338293e+00
  2.1202419365782192e-03    7.2915014788759560e+00
  2.1682467892583440e-03    7.5082553307902664e+00
  2.2142412735847257e-03    7.7205966431418442e+00
  2.2617201706651257e-03    7.9445212145554560e+00
  2.3093203492645172e-03    8.1737938380685407e+00
  2.3573284250097541e-03    8.4098180608318724e+00
  2.4031490496630187e-03    8.6395236249608605e+00
  2.4508669705725684e-03    8.8832764426547755e+00
  2.4988587918685413e-03    9.1330374785741579e+00
  2.5460386111253062e-03    9.3830166842565621e+00
  2.5930164810292256e-03    9.6362377695036585e+00
  2.6406258155194503e-03    9.8971835153146852e+00
  2.6883696301307713e-03    1.0163166133326092e+01
  2.7372670702797562e-03    1.0439962373010719e+01
  2.7851515726738203e-03    1.0715256750892127e+01
  2.8334763663741156e-03    1.0997249756105033e+01
  2.8815777322281047e-03    1.1282021824922634e+01
  2.9293588179354004e-03    1.1568855353368889e+01
  2.9766206943450768e-03    1.1856378949158875e+01
  3.0000000000000001e-03    1.2000000000000000e+01
